 (2 sigma upper bound from Planck + DESI-I for N_\chi = 2)log10Geff, sum_mnu(eV)
-9.493368566966364774e-01 0.000000000000000000e+00
-9.497170453734081752e-01 3.590101293345038204e-04
-9.498394956719320437e-01 7.180202586690076407e-04
-9.499466645601023496e-01 8.527820729803121773e-04
-9.501195136394863239e-01 1.077030388003511353e-03
-9.504243272518457797e-01 1.436040517338015281e-03
-9.507427735882657549e-01 1.795050646672519210e-03
-9.510701585626160082e-01 2.154060776007022705e-03
-9.514118660253036985e-01 2.491680803138492800e-03
-9.514378826092755315e-01 2.513070905341526634e-03
-9.518713042962314574e-01 2.872081034676030563e-03
-9.523173142364792509e-01 3.231091164010534492e-03
-9.527716663349432569e-01 3.590101293345038420e-03
-9.528770674905051585e-01 3.674225329187151209e-03
-9.532002031466179082e-01 3.949111422679542349e-03
-9.535987520062300105e-01 4.308121552014045411e-03
-9.540673486889541532e-01 4.667131681348549339e-03
-9.543422689557066185e-01 4.900334044077511719e-03
-9.544393408865124995e-01 5.026141810683053268e-03
-9.546516888119130906e-01 5.385151940017557197e-03
-9.549699788832164415e-01 5.744162069352061126e-03
-9.552688896667067553e-01 6.103172198686565054e-03
-9.555785797867770714e-01 6.462182328021068983e-03
-9.558074704209080785e-01 6.720839792935875100e-03
-9.559257582443145829e-01 6.821192457355572912e-03
-9.563159220121761894e-01 7.180202586690076841e-03
-9.567509027170775227e-01 7.539212716024579902e-03
-9.570576140626961825e-01 7.898222845359084698e-03
-9.572726718861095385e-01 8.106989409346196038e-03
-9.574086387169098433e-01 8.257232974693587760e-03
-9.577162607891239743e-01 8.616243104028090821e-03
-9.581027966733413059e-01 8.975253233362595617e-03
-9.584938315166735556e-01 9.334263362697098679e-03
-9.587378733513109985e-01 9.528902985390559632e-03
-9.589454191649274817e-01 9.693273492031603475e-03
-9.593584225974781665e-01 1.005228362136610654e-02
-9.597795774715243144e-01 1.041129375070061133e-02
-9.601968627183559146e-01 1.077030388003511439e-02
-9.602030748165124585e-01 1.077568487408360129e-02
-9.605856059769786182e-01 1.112931400936962092e-02
-9.610058601838384895e-01 1.148832413870412225e-02
-9.614172443659908529e-01 1.184733426803862531e-02
-9.616682762817139185e-01 1.205998252656867095e-02
-9.618739624297817370e-01 1.220634439737313184e-02
-9.623541399344472946e-01 1.256535452670763317e-02
-9.628714914858318430e-01 1.292436465604213623e-02
-9.631334777469153785e-01 1.312863907573552646e-02
-9.633465486791205068e-01 1.328337478537664103e-02
-9.639145687978224464e-01 1.364238491471114582e-02
-9.645002423205059072e-01 1.400139504404564889e-02
-9.645986792121168385e-01 1.406068647435769481e-02
-9.649598230994688164e-01 1.436040517338015368e-02
-9.653870822013188580e-01 1.471941530271465674e-02
-9.657715570515705839e-01 1.507842543204915980e-02
-9.660638806773182985e-01 1.535136565404495931e-02
-9.661817705264954537e-01 1.543743556138366460e-02
-9.667601644398776672e-01 1.579644569071816940e-02
-9.673202234591211646e-01 1.615545582005267072e-02
-9.675290821425197585e-01 1.629122267264600243e-02
-9.678429926308009801e-01 1.651446594938717552e-02
-9.683733742344068363e-01 1.687347607872168032e-02
-9.688865723332892310e-01 1.723248620805618511e-02
-9.689942836077212185e-01 1.730400563688078847e-02
-9.693598244713312884e-01 1.759149633739068644e-02
-9.697872476474194148e-01 1.795050646672519123e-02
-9.702086858203066155e-01 1.830951659605969603e-02
-9.704594850729226785e-01 1.849910360888878946e-02
-9.707195774265392485e-01 1.866852672539419736e-02
-9.712805175443365302e-01 1.902753685472870215e-02
-9.717725161696934011e-01 1.938654698406320695e-02
-9.719246865381241385e-01 1.948526942108620708e-02
-9.724056239864475870e-01 1.974555711339771175e-02
-9.730899094976857011e-01 2.010456724273221307e-02
-9.733898880033255985e-01 2.026617241883309564e-02
-9.736724482446950102e-01 2.046357737206671787e-02
-9.742057277083870925e-01 2.082258750140122266e-02
-9.747550939722288144e-01 2.118159763073572746e-02
-9.748550894685269474e-01 2.124628882025391546e-02
-9.753369539111744757e-01 2.154060776007022879e-02
-9.759281322797959124e-01 2.189961788940473358e-02
-9.763202909337285185e-01 2.215255305084292553e-02
-9.764951451282373185e-01 2.225862801873923838e-02
-9.771336787832076709e-01 2.261763814807374318e-02
-9.777796388306494446e-01 2.297664827740824450e-02
-9.777854923989299785e-01 2.297992673054374477e-02
-9.783523017589497162e-01 2.333565840674274930e-02
-9.789412353440940517e-01 2.369466853607724716e-02
-9.792506938641314385e-01 2.389526595581891594e-02
-9.794913850844725323e-01 2.405367866541175542e-02
-9.799935370475532093e-01 2.441268879474626022e-02
-9.805852128130453371e-01 2.477169892408076501e-02
-9.807158953293330095e-01 2.485025762163373467e-02
-9.811963535997232366e-01 2.513070905341526634e-02
-9.817759028405872446e-01 2.548971918274977461e-02
-9.821810967945343585e-01 2.572188900585666016e-02
-9.823537511784681264e-01 2.584872931208427593e-02
-9.828470351864324606e-01 2.620773944141877726e-02
-9.833456844442426403e-01 2.656674957075328553e-02
-9.836462982597358184e-01 2.677972025875884760e-02
-9.839091246211646435e-01 2.692575970008778685e-02
-9.845559449894621951e-01 2.728476982942228818e-02
-9.851114997249372784e-01 2.758730998600305434e-02
-9.852018959766720707e-01 2.764377995875679297e-02
-9.857532635042280944e-01 2.800279008809129777e-02
-9.863353758237728419e-01 2.836180021742580257e-02
-9.865767011901387384e-01 2.850898837727824930e-02
-9.870099178459540434e-01 2.872081034676030736e-02
-9.876982981741189160e-01 2.907982047609480869e-02
-9.880419026553400874e-01 2.924481049901492963e-02
-9.883985261249494947e-01 2.943883060542931349e-02
-9.890284587291494622e-01 2.979784073476381828e-02
-9.895071041205416584e-01 3.007651247346226214e-02
-9.896382256913707209e-01 3.015685086409831961e-02
-9.902810100786241243e-01 3.051586099343282441e-02
-9.909050156012692012e-01 3.087487112276732920e-02
-9.909723055857430074e-01 3.091230370616131207e-02
-9.917029519885904865e-01 3.123388125210183053e-02
-9.924375070509445784e-01 3.155021024999229290e-02
-9.925220082647606690e-01 3.159289138143633879e-02
-9.932433040854902195e-01 3.195190151077083318e-02
-9.939027085161460384e-01 3.230644600931618926e-02
-9.939110883014586895e-01 3.231091164010534145e-02
-9.946265158077275403e-01 3.266992176943984971e-02
-9.953679099813474984e-01 3.302609604967202822e-02
-9.953739303477724398e-01 3.302893189877435104e-02
-9.961353017931247056e-01 3.338794202810885237e-02
-9.968331114465489584e-01 3.371061482967126904e-02
-9.968996676620979214e-01 3.374695215744336063e-02
-9.975614301935363804e-01 3.410596228677786196e-02
-9.979836458405333399e-01 3.446497241611236328e-02
-9.982983129117504184e-01 3.464394767037123901e-02
-9.986651902678345127e-01 3.482398254544687155e-02
-9.994430361136431573e-01 3.518299267478137288e-02
-9.997635143769518784e-01 3.534516163344282591e-02
-1.000108020859169722e+00 3.554200280411588114e-02
-1.000805898194591759e+00 3.590101293345038247e-02
-1.001228715842153782e+00 3.611687298334224916e-02
-1.001520616038269473e+00 3.626002306278488380e-02
-1.001792075992850251e+00 3.661903319211939206e-02
-1.002523364393108407e+00 3.697804332145389339e-02
-1.002693917307355242e+00 3.706124310986733117e-02
-1.003172659928394328e+00 3.733705345078839472e-02
-1.003768755610055630e+00 3.769606358012290298e-02
-1.004159118772556702e+00 3.793610327632858381e-02
-1.004358829614094617e+00 3.805507370945740431e-02
-1.005016240072416744e+00 3.841408383879189870e-02
-1.005624320237758162e+00 3.874246789846784444e-02
-1.005683665324087261e+00 3.877309396812641390e-02
-1.006371485803081889e+00 3.913210409746091523e-02
-1.007078052667915946e+00 3.949111422679542349e-02
-1.007089521702959622e+00 3.949693276857885876e-02
-1.007832025316061753e+00 3.985012435612991788e-02
-1.008505959689404152e+00 4.020913448546442615e-02
-1.008554723168161082e+00 4.023187530580329963e-02
-1.009288199856548163e+00 4.056814461479893441e-02
-1.009999054131263119e+00 4.092715474413343574e-02
-1.010019924633362542e+00 4.093685237510111957e-02
-1.010742051458711321e+00 4.128616487346793706e-02
-1.011485126098564002e+00 4.163405926797407453e-02
-1.011509678609796792e+00 4.164517500280244533e-02
-1.012305281843990823e+00 4.200418513213694666e-02
-1.012950327563765462e+00 4.229084454161423368e-02
-1.013104610349950807e+00 4.236319526147144798e-02
-1.013874898343384956e+00 4.272220539080595625e-02
-1.014415529028966922e+00 4.297310301716467801e-02
-1.014643834213497353e+00 4.308121552014045758e-02
-1.015408879285781385e+00 4.344022564947495890e-02
-1.015880730494168382e+00 4.365942950102693482e-02
-1.016162631002391903e+00 4.379923577880946717e-02
-1.016890136757595986e+00 4.415824590814396849e-02
-1.017345931959369842e+00 4.447747950356960300e-02
-1.017409896499626765e+00 4.451725603747847676e-02
-1.018233327254719933e+00 4.487626616681297809e-02
-1.018811133424571302e+00 4.512369355344561517e-02
-1.019073662230673083e+00 4.523527629614747941e-02
-1.019922747747070479e+00 4.559428642548198768e-02
-1.020276334889772762e+00 4.574192524942986837e-02
-1.020697746137490203e+00 4.595329655481648901e-02
-1.021338113742480624e+00 4.631230668415099033e-02
-1.021741536354974222e+00 4.652477774849232695e-02
-1.022035568586938226e+00 4.667131681348549860e-02
-1.022751705300855019e+00 4.703032694281999992e-02
-1.023206737820175682e+00 4.724135452088394638e-02
-1.023552329807208228e+00 4.738933707215450819e-02
-1.024386929185425510e+00 4.774834720148900952e-02
-1.024671939285377142e+00 4.786899960473949001e-02
-1.025203719696675453e+00 4.810735733082351084e-02
-1.026011754465284032e+00 4.846636746015801911e-02
-1.026137140750578602e+00 4.852287287902648516e-02
-1.026824354152526819e+00 4.882537758949252044e-02
-1.027602342215780062e+00 4.915962266044242301e-02
-1.027655819424535322e+00 4.918438771882702176e-02
-1.028439678288837866e+00 4.954339784816153003e-02
-1.029067543680981522e+00 4.983801937156415174e-02
-1.029195367756282620e+00 4.990240797749603135e-02
-1.029930444817329205e+00 5.026141810683053268e-02
-1.030532745146182982e+00 5.055006492013482122e-02
-1.030699012870771147e+00 5.062042823616504095e-02
-1.031551150785523285e+00 5.097943836549954921e-02
-1.031997946611384442e+00 5.116604692279141942e-02
-1.032380459169727427e+00 5.133844849483404360e-02
-1.033171856256555943e+00 5.169745862416855187e-02
-1.033463148076585902e+00 5.182788234587644427e-02
-1.033992101571783007e+00 5.205646875350306013e-02
-1.034835198446619531e+00 5.241547888283755452e-02
-1.034928349541787362e+00 5.245494556036964934e-02
-1.035737185788879078e+00 5.277448901217206279e-02
-1.036393551006988822e+00 5.305974662539861969e-02
-1.036535772952526191e+00 5.313349914150656411e-02
-1.037271343223130637e+00 5.349250927084106544e-02
-1.037858752472190282e+00 5.376946356819129608e-02
-1.038038506762556823e+00 5.385151940017557370e-02
-1.038735078619156482e+00 5.421052952951008197e-02
-1.039323953937391742e+00 5.447286332744009918e-02
-1.039540279007309387e+00 5.456953965884458330e-02
-1.040332751556507063e+00 5.492854978817908462e-02
-1.040789155402593202e+00 5.515128564656246457e-02
-1.041090762288327198e+00 5.528755991751357901e-02
-1.041944923273023571e+00 5.564657004684810115e-02
-1.042254356867794662e+00 5.577137803571605157e-02
-1.042740058806772119e+00 5.600558017618259554e-02
-1.043470778384889774e+00 5.636459030551709687e-02
-1.043719558332996122e+00 5.648242594078242695e-02
-1.044277193123034575e+00 5.672360043485161207e-02
-1.045113347983343211e+00 5.708261056418610646e-02
-1.045184759798197582e+00 5.711310786139425777e-02
-1.046019080985119309e+00 5.744162069352061473e-02
-1.046649961263399042e+00 5.768938607989564094e-02
-1.046919964585096174e+00 5.780063082285511605e-02
-1.047800894520060089e+00 5.815964095218961738e-02
-1.048115162728600502e+00 5.828992452715001105e-02
-1.048707397966976096e+00 5.851865108152412565e-02
-1.049580364193801962e+00 5.885087766130285558e-02
-1.049643362540013003e+00 5.887766121085862697e-02
-1.050500167085546943e+00 5.923667134019312830e-02
-1.051045565659003422e+00 5.946436213590357289e-02
-1.051338326066756146e+00 5.959568146952763656e-02
-1.051980604614161319e+00 5.995469159886213095e-02
-1.052510767124204882e+00 6.018853536172182050e-02
-1.052772962112260124e+00 6.031370172819663922e-02
-1.053479381249570856e+00 6.067271185753114748e-02
-1.053975968589406342e+00 6.090751405655321638e-02
-1.054263617299247890e+00 6.103172198686564881e-02
-1.055100403679798404e+00 6.139073211620015708e-02
-1.055441170054607802e+00 6.153598793884494655e-02
-1.055910065423721456e+00 6.174974224553465840e-02
-1.056697808791692506e+00 6.210875237486916667e-02
-1.056906371519809262e+00 6.220278694611901943e-02
-1.057534471328203107e+00 6.246776250420366106e-02
-1.058371572985010722e+00 6.281829672060844361e-02
-1.058392810437285059e+00 6.282677263353816932e-02
-1.059289332035426412e+00 6.318578276287267759e-02
-1.059836774450212182e+00 6.340365143861649566e-02
-1.060173478764831145e+00 6.354479289220717197e-02
-1.061004592272997593e+00 6.390380302154168024e-02
-1.061301975915413642e+00 6.402714623964500529e-02
-1.061887983030917137e+00 6.426281315087618851e-02
-1.062767177380615102e+00 6.461848396073763268e-02
-1.062774820366517270e+00 6.462182328021068289e-02
-1.063613787132463129e+00 6.498083340954519116e-02
-1.064232378845816562e+00 6.524180401269416563e-02
-1.064472073532356511e+00 6.533984353887969942e-02
-1.065354136592989054e+00 6.569885366821419381e-02
-1.065697580311018022e+00 6.583785961104014761e-02
-1.066205023345867753e+00 6.605786379754870208e-02
-1.067038807075630480e+00 6.641687392688321034e-02
-1.067162781776219482e+00 6.647001033684832305e-02
-1.067893884708638552e+00 6.677588405621770473e-02
-1.068627983241420942e+00 6.712971528050490355e-02
-1.068639897614372947e+00 6.713489418555221300e-02
-1.069601619843490115e+00 6.749390431488672126e-02
-1.070093184706622402e+00 6.767934951014348277e-02
-1.070492487435006357e+00 6.785291444422121565e-02
-1.071318055384581580e+00 6.821192457355572392e-02
-1.071558386171823862e+00 6.831331504174548153e-02
-1.072151708311094742e+00 6.857093470289023218e-02
-1.072984412076256389e+00 6.892994483222474045e-02
-1.073023587637025322e+00 6.894678962884580320e-02
-1.073889286746571026e+00 6.928895496155923484e-02
-1.074488789102226782e+00 6.952414060467211609e-02
-1.074804914239066322e+00 6.964796509089374310e-02
-1.075726746022045432e+00 7.000697522022825137e-02
-1.075953990567428242e+00 7.009690785346986419e-02
-1.076567021303445282e+00 7.036598534956274575e-02
-1.077278237639358816e+00 7.072499547889725402e-02
-1.077419192032629702e+00 7.079309906541191022e-02
-1.078046604764038685e+00 7.108400560823176229e-02
-1.078884393497831162e+00 7.143040354747624832e-02
-1.078916784585561173e+00 7.144301573756625667e-02
-1.079712107760250284e+00 7.180202586690076494e-02
-1.080349594963032622e+00 7.204619268885466277e-02
-1.080631209735909870e+00 7.216103599623527320e-02
-1.081481841158034696e+00 7.252004612556976759e-02
-1.081814796428234082e+00 7.265512977699120634e-02
-1.082615812142102119e+00 7.287905625490427586e-02
-1.083279997893435542e+00 7.306343065791219560e-02
-1.083708283499170033e+00 7.323806638423878412e-02
-1.084587884633509303e+00 7.359707651357329239e-02
-1.084745199358637002e+00 7.366043477727894639e-02
-1.085521193149258767e+00 7.395608664290778678e-02
-1.086210400823838462e+00 7.421858347820387003e-02
-1.086453291305064628e+00 7.431509677224229504e-02
-1.087247664510344602e+00 7.467410690157677555e-02
-1.087675602289039922e+00 7.484211083058742164e-02
-1.088151945480363203e+00 7.503311703091129770e-02
-1.089042656199647574e+00 7.539212716024580596e-02
-1.089140803754241382e+00 7.543123637429198503e-02
-1.089942321196811115e+00 7.575113728958030035e-02
-1.090606005219442842e+00 7.601319542386536510e-02
-1.090833427118683252e+00 7.611014741891480861e-02
-1.091679190226848561e+00 7.646915754824931688e-02
-1.092071206684644302e+00 7.663463205485800123e-02
-1.092609418637518592e+00 7.682816767758381127e-02
-1.093536408149845762e+00 7.715950588666811716e-02
-1.093608838739186462e+00 7.718717780691831953e-02
-1.094551811274729225e+00 7.754618793625282780e-02
-1.095001609615047222e+00 7.771635574251166412e-02
-1.095535739768803918e+00 7.790519806558732219e-02
-1.096466811080248682e+00 7.823428748586136461e-02
-1.096566757966800809e+00 7.826420819492183045e-02
-1.097771891718958281e+00 7.862321832425633872e-02
-1.097932012545450142e+00 7.867417610725727095e-02
-1.098623728991578563e+00 7.898222845359084698e-02
-1.099397214010651602e+00 7.931165984632358723e-02
-1.099474340646681148e+00 7.934123858292532749e-02
-1.100408714168870761e+00 7.970024871225984964e-02
-1.100862415475853062e+00 7.987938670436556254e-02
-1.101292765476638014e+00 8.005925884159435790e-02
-1.102129055609056163e+00 8.041826897092885229e-02
-1.102327616941054522e+00 8.049512329398894606e-02
-1.103056327208211229e+00 8.077727910026336056e-02
-1.103792818406255982e+00 8.106066277916307294e-02
-1.103990227940240709e+00 8.113628922959786882e-02
-1.104927039081829321e+00 8.149529935893236321e-02
-1.105258019871457442e+00 8.162501477052089283e-02
-1.105801049015862292e+00 8.185430948826687148e-02
-1.106584711584419844e+00 8.221331961760137974e-02
-1.106723221336658902e+00 8.227624175574099752e-02
-1.107440387707050666e+00 8.257232974693587413e-02
-1.108188422801860362e+00 8.285066296977736111e-02
-1.108394499302451042e+00 8.293133987627038239e-02
-1.109319295584896503e+00 8.329035000560489066e-02
-1.109653624267061822e+00 8.341933937571384405e-02
-1.110355322322771787e+00 8.364936013493938505e-02
-1.111118825732263282e+00 8.389892812322306825e-02
-1.111395014095134970e+00 8.400837026427389331e-02
-1.112307741514604320e+00 8.436738039360840158e-02
-1.112584027197464742e+00 8.447554742374827064e-02
-1.113210300759108984e+00 8.472639052294289597e-02
-1.114049228662666202e+00 8.506002397779949264e-02
-1.114115961780746122e+00 8.508540065227740423e-02
-1.115017241014019778e+00 8.544441078161191250e-02
-1.115514430127867662e+00 8.563222839997802760e-02
-1.115955517055911228e+00 8.580342091094640689e-02
-1.116791419597850776e+00 8.616243104028091515e-02
-1.116979631593069122e+00 8.623757516069591178e-02
-1.117757882236057654e+00 8.652144116961542342e-02
-1.118444833058270582e+00 8.676273876657043804e-02
-1.118748860137211310e+00 8.688045129894991780e-02
-1.119616377375358462e+00 8.723946142828442607e-02
-1.119910034523472042e+00 8.735329105575091735e-02
-1.120552428029798486e+00 8.759847155761893434e-02
-1.121355101679940125e+00 8.795748168695344260e-02
-1.121375235988673502e+00 8.796507590174719449e-02
-1.122256351318233092e+00 8.831649181628795087e-02
-1.122840437453874962e+00 8.854811536307910513e-02
-1.123178116856851760e+00 8.867550194562244525e-02
-1.124133815800562042e+00 8.903451207495696740e-02
-1.124305638919076422e+00 8.909900530870935864e-02
-1.125087651233200647e+00 8.939352220429144791e-02
-1.125770840384278326e+00 8.964877021270026280e-02
-1.126079491616361450e+00 8.975253233362595617e-02
-1.127148863414646485e+00 9.011154246296046444e-02
-1.127236041849479786e+00 9.014051358828553684e-02
-1.128099132735997934e+00 9.047055259229494495e-02
-1.128701243314681246e+00 9.069963144811202249e-02
-1.129068050192055583e+00 9.082956272162945321e-02
-1.130055688321942142e+00 9.118857285096397536e-02
-1.130166444779882706e+00 9.122929293795811745e-02
-1.131002563232412772e+00 9.154758298029846975e-02
-1.131631646245084166e+00 9.177721543696554241e-02
-1.131975841833740670e+00 9.190659310963297801e-02
-1.132946130171341936e+00 9.226560323896747240e-02
-1.133096847710285626e+00 9.232171847121083130e-02
-1.133894795165956371e+00 9.262461336830199454e-02
-1.134562049175487086e+00 9.294926981817074052e-02
-1.134631603630362529e+00 9.298362349763648893e-02
-1.135567113314427612e+00 9.334263362697099720e-02
-1.136027250640688546e+00 9.352290154229148111e-02
-1.136482259194205202e+00 9.370164375630549158e-02
